s,Pa,Pa,Pa,C,C,C,kg/m3,kg/m3,kg/m3
Time,"Pres 1","Pres 2","Pres 3","Temp 1","Temp 2","Temp 3","Dens 1","Dens 2","Dens 3"
 0.0000000E+000,-5.5938402E-006,-4.3567183E-006,-4.3097434E-006, 2.0000000E+001, 2.0000000E+001, 2.0000000E+001, 1.1952532E+000, 1.1952532E+000, 1.1952532E+000
 6.3245553E-001, 6.2285671E+001, 6.2272262E+001, 6.2265786E+001, 2.0051244E+001, 2.0051244E+001, 2.0051244E+001, 1.1957787E+000, 1.1957787E+000, 1.1957787E+000
 1.2649111E+000, 3.9136796E+002, 3.9136035E+002, 3.9135669E+002, 2.0321554E+001, 2.0321550E+001, 2.0321554E+001, 1.1985547E+000, 1.1985547E+000, 1.1985547E+000
 1.8183097E+000, 8.5193118E+002, 8.5193134E+002, 8.5193145E+002, 2.0698629E+001, 2.0698609E+001, 2.0698632E+001, 1.2024368E+000, 1.2024369E+000, 1.2024368E+000
 2.4507652E+000, 1.3198725E+003, 1.3198727E+003, 1.3198728E+003, 2.1080171E+001, 2.1080123E+001, 2.1080183E+001, 1.2063771E+000, 1.2063773E+000, 1.2063771E+000
 3.0041638E+000, 1.7878460E+003, 1.7878461E+003, 1.7878462E+003, 2.1460294E+001, 2.1460214E+001, 2.1460323E+001, 1.2103137E+000, 1.2103140E+000, 1.2103135E+000
 3.6366193E+000, 2.2560025E+003, 2.2560027E+003, 2.2560028E+003, 2.1839121E+001, 2.1839009E+001, 2.1839175E+001, 1.2142473E+000, 1.2142478E+000, 1.2142471E+000
 4.2690748E+000, 2.7556969E+003, 2.7556971E+003, 2.7556972E+003, 2.2241997E+001, 2.2241850E+001, 2.2242083E+001, 1.2184410E+000, 1.2184416E+000, 1.2184407E+000
 4.8224734E+000, 3.2245451E+003, 3.2245453E+003, 3.2245454E+003, 2.2618654E+001, 2.2618475E+001, 2.2618775E+001, 1.2223712E+000, 1.2223719E+000, 1.2223707E+000
 5.4549290E+000, 3.6938404E+003, 3.6938407E+003, 3.6938408E+003, 2.2994359E+001, 2.2994147E+001, 2.2994516E+001, 1.2263002E+000, 1.2263011E+000, 1.2262996E+000
 6.0083276E+000, 4.1636040E+003, 4.1636044E+003, 4.1636045E+003, 2.3369209E+001, 2.3368965E+001, 2.3369404E+001, 1.2302286E+000, 1.2302296E+000, 1.2302278E+000
 6.6407831E+000, 4.6338809E+003, 4.6338814E+003, 4.6338815E+003, 2.3743189E+001, 2.3742914E+001, 2.3743425E+001, 1.2341564E+000, 1.2341575E+000, 1.2341554E+000
 7.2732386E+000, 5.1360846E+003, 5.1360852E+003, 5.1360853E+003, 2.4141222E+001, 2.4140916E+001, 2.4141503E+001, 1.2383456E+000, 1.2383469E+000, 1.2383445E+000
 7.8266372E+000, 5.6074510E+003, 5.6074518E+003, 5.6074519E+003, 2.4513568E+001, 2.4513233E+001, 2.4513892E+001, 1.2422728E+000, 1.2422742E+000, 1.2422714E+000
 8.4590927E+000, 6.0793762E+003, 6.0793774E+003, 6.0793775E+003, 2.4885116E+001, 2.4884754E+001, 2.4885486E+001, 1.2461997E+000, 1.2462012E+000, 1.2461981E+000
 9.0124913E+000, 6.5518471E+003, 6.5518486E+003, 6.5518487E+003, 2.5255926E+001, 2.5255540E+001, 2.5256343E+001, 1.2501264E+000, 1.2501280E+000, 1.2501247E+000
 9.6449469E+000, 7.0248879E+003, 7.0248898E+003, 7.0248899E+003, 2.5625960E+001, 2.5625551E+001, 2.5626426E+001, 1.2540531E+000, 1.2540548E+000, 1.2540511E+000
 1.0277402E+001, 7.5300784E+003, 7.5300809E+003, 7.5300810E+003, 2.6019854E+001, 2.6019423E+001, 2.6020375E+001, 1.2582414E+000, 1.2582432E+000, 1.2582392E+000
 1.0830801E+001, 8.0042736E+003, 8.0042767E+003, 8.0042767E+003, 2.6388385E+001, 2.6387931E+001, 2.6388955E+001, 1.2621679E+000, 1.2621698E+000, 1.2621655E+000
 1.1463257E+001, 8.4790437E+003, 8.4790473E+003, 8.4790474E+003, 2.6756156E+001, 2.6755685E+001, 2.6756781E+001, 1.2660944E+000, 1.2660964E+000, 1.2660917E+000
 1.2016655E+001, 8.9543693E+003, 8.9543736E+003, 8.9543736E+003, 2.7123214E+001, 2.7122737E+001, 2.7123905E+001, 1.2700208E+000, 1.2700229E+000, 1.2700179E+000
 1.2649111E+001, 9.4302709E+003, 9.4302758E+003, 9.4302759E+003, 2.7489526E+001, 2.7489051E+001, 2.7490292E+001, 1.2739473E+000, 1.2739493E+000, 1.2739441E+000
 1.3202509E+001, 9.9067145E+003, 9.9067200E+003, 9.9067201E+003, 2.7855122E+001, 2.7854650E+001, 2.7855967E+001, 1.2778737E+000, 1.2778757E+000, 1.2778701E+000
 1.3834965E+001, 1.0383723E+004, 1.0383729E+004, 1.0383729E+004, 2.8219970E+001, 2.8219514E+001, 2.8220910E+001, 1.2818000E+000, 1.2818019E+000, 1.2817960E+000
 1.4467420E+001, 1.0893124E+004, 1.0893130E+004, 1.0893130E+004, 2.8608324E+001, 2.8607903E+001, 2.8609387E+001, 1.2859880E+000, 1.2859897E+000, 1.2859834E+000
 1.5020819E+001, 1.1371241E+004, 1.1371248E+004, 1.1371248E+004, 2.8971647E+001, 2.8971273E+001, 2.8972845E+001, 1.2899141E+000, 1.2899157E+000, 1.2899090E+000
 1.5653274E+001, 1.1849914E+004, 1.1849921E+004, 1.1849922E+004, 2.9334224E+001, 2.9333910E+001, 2.9335573E+001, 1.2938401E+000, 1.2938415E+000, 1.2938343E+000
 1.6206673E+001, 1.2329116E+004, 1.2329123E+004, 1.2329123E+004, 2.9696081E+001, 2.9695835E+001, 2.9697594E+001, 1.2977661E+000, 1.2977671E+000, 1.2977596E+000
 1.6839129E+001, 1.2808877E+004, 1.2808884E+004, 1.2808884E+004, 3.0057212E+001, 3.0057037E+001, 3.0058895E+001, 1.3016919E+000, 1.3016927E+000, 1.3016847E+000
 1.7471584E+001, 1.3321220E+004, 1.3321227E+004, 1.3321228E+004, 3.0441632E+001, 3.0441553E+001, 3.0443521E+001, 1.3058796E+000, 1.3058799E+000, 1.3058714E+000
 1.8024983E+001, 1.3802101E+004, 1.3802108E+004, 1.3802108E+004, 3.0801294E+001, 3.0801312E+001, 3.0803387E+001, 1.3098054E+000, 1.3098054E+000, 1.3097964E+000
 1.8657438E+001, 1.4283544E+004, 1.4283551E+004, 1.4283551E+004, 3.1160258E+001, 3.1160369E+001, 3.1162554E+001, 1.3137312E+000, 1.3137307E+000, 1.3137213E+000
 1.9210837E+001, 1.4765522E+004, 1.4765527E+004, 1.4765528E+004, 3.1518546E+001, 3.1518747E+001, 3.1521046E+001, 1.3176570E+000, 1.3176561E+000, 1.3176462E+000
 1.9843292E+001, 1.5248056E+004, 1.5248061E+004, 1.5248062E+004, 3.1876131E+001, 3.1876418E+001, 3.1878833E+001, 1.3215826E+000, 1.3215814E+000, 1.3215709E+000
 2.0475748E+001, 1.5763356E+004, 1.5763361E+004, 1.5763362E+004, 3.2256822E+001, 3.2257197E+001, 3.2259740E+001, 1.3257699E+000, 1.3257683E+000, 1.3257573E+000
 2.1029146E+001, 1.6247006E+004, 1.6247010E+004, 1.6247011E+004, 3.2613021E+001, 3.2613474E+001, 3.2616141E+001, 1.3296955E+000, 1.3296935E+000, 1.3296819E+000
 2.1661602E+001, 1.6731212E+004, 1.6731216E+004, 1.6731217E+004, 3.2968536E+001, 3.2969065E+001, 3.2971857E+001, 1.3336210E+000, 1.3336187E+000, 1.3336065E+000
 2.2215001E+001, 1.7215953E+004, 1.7215956E+004, 1.7215958E+004, 3.3323406E+001, 3.3324007E+001, 3.3326926E+001, 1.3375464E+000, 1.3375438E+000, 1.3375310E+000
 2.2847456E+001, 1.7701246E+004, 1.7701248E+004, 1.7701251E+004, 3.3677583E+001, 3.3678262E+001, 3.3681305E+001, 1.3414718E+000, 1.3414688E+000, 1.3414555E+000
 2.3400855E+001, 1.8187071E+004, 1.8187073E+004, 1.8187076E+004, 3.4031116E+001, 3.4031880E+001, 3.4035042E+001, 1.3453971E+000, 1.3453938E+000, 1.3453799E+000
 2.4033310E+001, 1.8673453E+004, 1.8673454E+004, 1.8673458E+004, 3.4383978E+001, 3.4384841E+001, 3.4388113E+001, 1.3493225E+000, 1.3493187E+000, 1.3493043E+000
 2.4665766E+001, 1.9192852E+004, 1.9192852E+004, 1.9192857E+004, 3.4759638E+001, 3.4760627E+001, 3.4764002E+001, 1.3535095E+000, 1.3535052E+000, 1.3534903E+000
 2.5219164E+001, 1.9680345E+004, 1.9680345E+004, 1.9680350E+004, 3.5111158E+001, 3.5112282E+001, 3.5115743E+001, 1.3574349E+000, 1.3574299E+000, 1.3574147E+000
 2.5851620E+001, 2.0168393E+004, 2.0168391E+004, 2.0168398E+004, 3.5462015E+001, 3.5463276E+001, 3.5466824E+001, 1.3613602E+000, 1.3613546E+000, 1.3613390E+000
 2.6405018E+001, 2.0656965E+004, 2.0656962E+004, 2.0656969E+004, 3.5812229E+001, 3.5813621E+001, 3.5817267E+001, 1.3652855E+000, 1.3652794E+000, 1.3652633E+000
 2.7037474E+001, 2.1146089E+004, 2.1146085E+004, 2.1146093E+004, 3.6161793E+001, 3.6163127E+001, 3.6167062E+001, 1.3692108E+000, 1.3692049E+000, 1.3691875E+000
 2.7669930E+001, 2.1668407E+004, 2.1668402E+004, 2.1668411E+004, 3.6533962E+001, 3.6533601E+001, 3.6539478E+001, 1.3733978E+000, 1.3733994E+000, 1.3733733E+000
 2.8223328E+001, 2.2158630E+004, 2.2158623E+004, 2.2158634E+004, 3.6882219E+001, 3.6862944E+001, 3.6887966E+001, 1.3773231E+000, 1.3774087E+000, 1.3772975E+000
 2.8855784E+001, 2.2649405E+004, 2.2649398E+004, 2.2649410E+004, 3.7229841E+001, 3.7181918E+001, 3.7235817E+001, 1.3812483E+000, 1.3814616E+000, 1.3812217E+000
 2.9409182E+001, 2.3140708E+004, 2.3140699E+004, 2.3140712E+004, 3.7576849E+001, 3.7502765E+001, 3.7583049E+001, 1.3851736E+000, 1.3855039E+000, 1.3851459E+000
 3.0041638E+001, 2.3632561E+004, 2.3632552E+004, 2.3632566E+004, 3.7923224E+001, 3.7829613E+001, 3.7929645E+001, 1.3890989E+000, 1.3895170E+000, 1.3890702E+000
 3.0674093E+001, 2.4157795E+004, 2.4157786E+004, 2.4157800E+004, 3.8292027E+001, 3.8188193E+001, 3.8298680E+001, 1.3932858E+000, 1.3937505E+000, 1.3932560E+000
 3.1227492E+001, 2.4650753E+004, 2.4650744E+004, 2.4650757E+004, 3.8637146E+001, 3.8525702E+001, 3.8644012E+001, 1.3972111E+000, 1.3977107E+000, 1.3971804E+000
 3.1859947E+001, 2.5144262E+004, 2.5144253E+004, 2.5144266E+004, 3.8981647E+001, 3.8872341E+001, 3.8988721E+001, 1.4011365E+000, 1.4016273E+000, 1.4011047E+000
 3.2413346E+001, 2.5638300E+004, 2.5638292E+004, 2.5638305E+004, 3.9325561E+001, 3.9220713E+001, 3.9332842E+001, 1.4050618E+000, 1.4055334E+000, 1.4050291E+000
 3.3045802E+001, 2.6132888E+004, 2.6132880E+004, 2.6132892E+004, 3.9668852E+001, 3.9573784E+001, 3.9676336E+001, 1.4089872E+000, 1.4094156E+000, 1.4089535E+000
 3.3678257E+001, 2.6661035E+004, 2.6661028E+004, 2.6661039E+004, 4.0034381E+001, 3.9956197E+001, 4.0042082E+001, 1.4131744E+000, 1.4135272E+000, 1.4131396E+000
 3.4231656E+001, 2.7156724E+004, 2.7156718E+004, 2.7156727E+004, 4.0376462E+001, 4.0318642E+001, 4.0384369E+001, 1.4170998E+000, 1.4173612E+000, 1.4170641E+000
 3.4864111E+001, 2.7652957E+004, 2.7652951E+004, 2.7652959E+004, 4.0717930E+001, 4.0680581E+001, 4.0726046E+001, 1.4210253E+000, 1.4211944E+000, 1.4209886E+000
 3.5417510E+001, 2.8149711E+004, 2.8149706E+004, 2.8149713E+004, 4.1058829E+001, 4.1038304E+001, 4.1067162E+001, 1.4249508E+000, 1.4250439E+000, 1.4249130E+000
 3.6049965E+001, 2.8647012E+004, 2.8647008E+004, 2.8647014E+004, 4.1399138E+001, 4.1388394E+001, 4.1407681E+001, 1.4288762E+000, 1.4289251E+000, 1.4288374E+000
 3.6603364E+001, 2.9144831E+004, 2.9144827E+004, 2.9144832E+004, 4.1738871E+001, 4.1733564E+001, 4.1747547E+001, 1.4328017E+000, 1.4328259E+000, 1.4327622E+000
 3.7235819E+001, 2.9643194E+004, 2.9643191E+004, 2.9643194E+004, 4.2078022E+001, 4.2075723E+001, 4.2086126E+001, 1.4367272E+000, 1.4367376E+000, 1.4366902E+000
 3.7868275E+001, 3.0175364E+004, 3.0175361E+004, 3.0175364E+004, 4.2439163E+001, 4.2438586E+001, 4.2419160E+001, 1.4409143E+000, 1.4409170E+000, 1.4410057E+000
 3.8421674E+001, 3.0674820E+004, 3.0674817E+004, 3.0674818E+004, 4.2777143E+001, 4.2777412E+001, 4.2657796E+001, 1.4448399E+000, 1.4448386E+000, 1.4453860E+000
 3.9054129E+001, 3.1174826E+004, 3.1174824E+004, 3.1174824E+004, 4.3114552E+001, 4.3115255E+001, 4.2842331E+001, 1.4487655E+000, 1.4487622E+000, 1.4500137E+000
 3.9607528E+001, 3.1675361E+004, 3.1675359E+004, 3.1675358E+004, 4.3451411E+001, 4.3452312E+001, 4.3021834E+001, 1.4526912E+000, 1.4526870E+000, 1.4546650E+000
 4.0239983E+001, 3.2176441E+004, 3.2176440E+004, 3.2176438E+004, 4.3787688E+001, 4.3788716E+001, 4.3217927E+001, 1.4566170E+000, 1.4566122E+000, 1.4592404E+000
 4.0872439E+001, 3.2711507E+004, 3.2711506E+004, 3.2711503E+004, 4.4145776E+001, 4.4146987E+001, 4.3460729E+001, 1.4608045E+000, 1.4607990E+000, 1.4639653E+000
 4.1425837E+001, 3.3213668E+004, 3.3213667E+004, 3.3213664E+004, 4.4480907E+001, 4.4482310E+001, 4.3727942E+001, 1.4647304E+000, 1.4647239E+000, 1.4682109E+000
 4.2058293E+001, 3.3716363E+004, 3.3716362E+004, 3.3716358E+004, 4.4815458E+001, 4.4817061E+001, 4.4026277E+001, 1.4686563E+000, 1.4686489E+000, 1.4723105E+000
 4.2611691E+001, 3.4219568E+004, 3.4219567E+004, 3.4219563E+004, 4.5149469E+001, 4.5151271E+001, 4.4343065E+001, 1.4725822E+000, 1.4725738E+000, 1.4763224E+000
 4.3244147E+001, 3.4723304E+004, 3.4723303E+004, 3.4723299E+004, 4.5482908E+001, 4.5484938E+001, 4.4668693E+001, 1.4765080E+000, 1.4764986E+000, 1.4802907E+000
 4.3876603E+001, 3.5261186E+004, 3.5261185E+004, 3.5261181E+004, 4.5837958E+001, 4.5840255E+001, 4.5017347E+001, 1.4806956E+000, 1.4806850E+000, 1.4845146E+000
 4.4430001E+001, 3.5765981E+004, 3.5765981E+004, 3.5765977E+004, 4.6170193E+001, 4.6172797E+001, 4.5343736E+001, 1.4846218E+000, 1.4846097E+000, 1.4884743E+000
 4.5062457E+001, 3.6271308E+004, 3.6271307E+004, 3.6271304E+004, 4.6501438E+001, 4.6504757E+001, 4.5681951E+001, 1.4885500E+000, 1.4885346E+000, 1.4923760E+000
 4.5615855E+001, 3.6777143E+004, 3.6777142E+004, 3.6777139E+004, 4.6830857E+001, 4.6836176E+001, 4.6053762E+001, 1.4924843E+000, 1.4924595E+000, 1.4961177E+000
 4.6248311E+001, 3.7283547E+004, 3.7283546E+004, 3.7283543E+004, 4.7157533E+001, 4.7167232E+001, 4.6438882E+001, 1.4964292E+000, 1.4963839E+000, 1.4997942E+000
 4.6801709E+001, 3.7790467E+004, 3.7790466E+004, 3.7790463E+004, 4.7480861E+001, 4.7497789E+001, 4.6803213E+001, 1.5003875E+000, 1.5003083E+000, 1.5035653E+000
 4.7434165E+001, 3.8297895E+004, 3.8297893E+004, 3.8297891E+004, 4.7800596E+001, 4.7827756E+001, 4.7130488E+001, 1.5043600E+000, 1.5042327E+000, 1.5075075E+000
 4.8066620E+001, 3.8839691E+004, 3.8839689E+004, 3.8839688E+004, 4.8137817E+001, 4.8179099E+001, 4.7419569E+001, 1.5086125E+000, 1.5084187E+000, 1.5119927E+000
 4.8620019E+001, 3.9348131E+004, 3.9348130E+004, 3.9348128E+004, 4.8452649E+001, 4.8507889E+001, 4.7650502E+001, 1.5126028E+000, 1.5123430E+000, 1.5163850E+000
 4.9252475E+001, 3.9857076E+004, 3.9857075E+004, 3.9857074E+004, 4.8769020E+001, 4.8836097E+001, 4.7890412E+001, 1.5165833E+000, 1.5162673E+000, 1.5207339E+000
 4.9805873E+001, 4.0366510E+004, 4.0366509E+004, 4.0366509E+004, 4.9091096E+001, 4.9163763E+001, 4.8158821E+001, 1.5205345E+000, 1.5201916E+000, 1.5249463E+000
 5.0438329E+001, 4.0876459E+004, 4.0876459E+004, 4.0876459E+004, 4.9419973E+001, 4.9490854E+001, 4.8473009E+001, 1.5244510E+000, 1.5241161E+000, 1.5289394E+000
 5.1070784E+001, 4.1420956E+004, 4.1420957E+004, 4.1420957E+004, 4.9776466E+001, 4.9839117E+001, 4.8820844E+001, 1.5285988E+000, 1.5283023E+000, 1.5331358E+000
 5.1624183E+001, 4.1931946E+004, 4.1931947E+004, 4.1931947E+004, 5.0113094E+001, 5.0165025E+001, 4.9181009E+001, 1.5324734E+000, 1.5322272E+000, 1.5369048E+000
 5.2256638E+001, 4.2443459E+004, 4.2443460E+004, 4.2443461E+004, 5.0448307E+001, 5.0490332E+001, 4.9562492E+001, 1.5363520E+000, 1.5361525E+000, 1.5405691E+000
 5.2810037E+001, 4.2955468E+004, 4.2955469E+004, 4.2955470E+004, 5.0781043E+001, 5.0815049E+001, 4.9988365E+001, 1.5402398E+000, 1.5400782E+000, 1.5440181E+000
 5.3442492E+001, 4.3467995E+004, 4.3467995E+004, 4.3467996E+004, 5.1112017E+001, 5.1139131E+001, 5.0415024E+001, 1.5441334E+000, 1.5440043E+000, 1.5474596E+000
 5.4074948E+001, 4.4015239E+004, 4.4015240E+004, 4.4015241E+004, 5.1462775E+001, 5.1484112E+001, 5.0851123E+001, 1.5482947E+000, 1.5481929E+000, 1.5512175E+000
 5.4628347E+001, 4.4528792E+004, 4.4528793E+004, 4.4528794E+004, 5.1788628E+001, 5.1806874E+001, 5.1234435E+001, 1.5522075E+000, 1.5521203E+000, 1.5548593E+000
 5.5260802E+001, 4.5042857E+004, 4.5042858E+004, 4.5042859E+004, 5.2112815E+001, 5.2129010E+001, 5.1590207E+001, 1.5561257E+000, 1.5560482E+000, 1.5586299E+000
 5.5814201E+001, 4.5557410E+004, 4.5557411E+004, 4.5557412E+004, 5.2436239E+001, 5.2450483E+001, 5.1926298E+001, 1.5600451E+000, 1.5599768E+000, 1.5624923E+000
 5.6446656E+001, 4.6072471E+004, 4.6072472E+004, 4.6072473E+004, 5.2758370E+001, 5.2771241E+001, 5.2250657E+001, 1.5639681E+000, 1.5639063E+000, 1.5664083E+000
 5.7000055E+001, 4.6588018E+004, 4.6588019E+004, 4.6588020E+004, 5.3079367E+001, 5.3091287E+001, 5.2571291E+001, 1.5678942E+000, 1.5678369E+000, 1.5703398E+000
 5.7632510E+001, 4.7104074E+004, 4.7104076E+004, 4.7104077E+004, 5.3399665E+001, 5.3410527E+001, 5.2890120E+001, 1.5718211E+000, 1.5717688E+000, 1.5742776E+000
 5.8264966E+001, 4.7655077E+004, 4.7655078E+004, 4.7655079E+004, 5.3740949E+001, 5.3750136E+001, 5.3227928E+001, 1.5760090E+000, 1.5759647E+000, 1.5784862E+000
 5.8818364E+001, 4.8172151E+004, 4.8172152E+004, 4.8172153E+004, 5.4060594E+001, 5.4067002E+001, 5.3543972E+001, 1.5799341E+000, 1.5799031E+000, 1.5824325E+000
 5.9450820E+001, 4.8689734E+004, 4.8689735E+004, 4.8689735E+004, 5.4377952E+001, 5.4380166E+001, 5.3833602E+001, 1.5838678E+000, 1.5838571E+000, 1.5865046E+000
 6.0004219E+001, 4.9207799E+004, 4.9207800E+004, 4.9207800E+004, 5.4693309E+001, 5.4689488E+001, 5.4031108E+001, 1.5878089E+000, 1.5878274E+000, 1.5910226E+000
 6.0636674E+001, 4.9655336E+004, 4.9655351E+004, 4.9655357E+004, 5.4963751E+001, 5.4952589E+001, 5.4115679E+001, 1.5912171E+000, 1.5912712E+000, 1.5953407E+000
 6.1269130E+001, 4.9840314E+004, 4.9840323E+004, 4.9840326E+004, 5.5068139E+001, 5.5051776E+001, 5.4054288E+001, 1.5926600E+000, 1.5927394E+000, 1.5975949E+000
 6.1822528E+001, 4.9847005E+004, 4.9847006E+004, 4.9847006E+004, 5.5061784E+001, 5.5042669E+001, 5.3982819E+001, 1.5927613E+000, 1.5928541E+000, 1.5980146E+000
 6.2454984E+001, 4.9845968E+004, 4.9845968E+004, 4.9845969E+004, 5.5052835E+001, 5.5031466E+001, 5.3957062E+001, 1.5927938E+000, 1.5928975E+000, 1.5981295E+000
 6.3008382E+001, 4.9845162E+004, 4.9845162E+004, 4.9845163E+004, 5.5047039E+001, 5.5022252E+001, 5.3946811E+001, 1.5928134E+000, 1.5929337E+000, 1.5981710E+000
 6.3640838E+001, 4.9844540E+004, 4.9844540E+004, 4.9844542E+004, 5.5043812E+001, 5.5011000E+001, 5.3943570E+001, 1.5928225E+000, 1.5929818E+000, 1.5981803E+000
 6.4273293E+001, 4.9844025E+004, 4.9844024E+004, 4.9844027E+004, 5.5042207E+001, 5.4986891E+001, 5.3964878E+001, 1.5928249E+000, 1.5930934E+000, 1.5980707E+000
 6.4826692E+001, 4.9843647E+004, 4.9843645E+004, 4.9843650E+004, 5.5040604E+001, 5.4950645E+001, 5.4004510E+001, 1.5928287E+000, 1.5932654E+000, 1.5978732E+000
 6.5459148E+001, 4.9843349E+004, 4.9843346E+004, 4.9843352E+004, 5.5038232E+001, 5.4902492E+001, 5.4038077E+001, 1.5928371E+000, 1.5934961E+000, 1.5977061E+000
 6.6012546E+001, 4.9843110E+004, 4.9843107E+004, 4.9843113E+004, 5.5035253E+001, 5.4848126E+001, 5.4067173E+001, 1.5928490E+000, 1.5937577E+000, 1.5975615E+000
 6.6645002E+001, 4.9842920E+004, 4.9842917E+004, 4.9842923E+004, 5.5031857E+001, 5.4801075E+001, 5.4092753E+001, 1.5928635E+000, 1.5939844E+000, 1.5974346E+000
 6.7277457E+001, 4.9842757E+004, 4.9842753E+004, 4.9842759E+004, 5.5028373E+001, 5.4766855E+001, 5.4119316E+001, 1.5928787E+000, 1.5941490E+000, 1.5973032E+000
 6.7830856E+001, 4.9842632E+004, 4.9842628E+004, 4.9842634E+004, 5.5025799E+001, 5.4743890E+001, 5.4144091E+001, 1.5928898E+000, 1.5942593E+000, 1.5971810E+000
 6.8463311E+001, 4.9842528E+004, 4.9842523E+004, 4.9842529E+004, 5.5024184E+001, 5.4733148E+001, 5.4160215E+001, 1.5928966E+000, 1.5943104E+000, 1.5971012E+000
 6.9016710E+001, 4.9842437E+004, 4.9842432E+004, 4.9842437E+004, 5.5023295E+001, 5.4736845E+001, 5.4168361E+001, 1.5928999E+000, 1.5942915E+000, 1.5970605E+000
 6.9649165E+001, 4.9842357E+004, 4.9842352E+004, 4.9842357E+004, 5.5022711E+001, 5.4745922E+001, 5.4169763E+001, 1.5929019E+000, 1.5942465E+000, 1.5970528E+000
 7.0202564E+001, 4.9842284E+004, 4.9842279E+004, 4.9842284E+004, 5.5022324E+001, 5.4759714E+001, 5.4164395E+001, 1.5929030E+000, 1.5941787E+000, 1.5970782E+000
 7.0835020E+001, 4.9842217E+004, 4.9842211E+004, 4.9842216E+004, 5.5022404E+001, 5.4760028E+001, 5.4148176E+001, 1.5929019E+000, 1.5941765E+000, 1.5971566E+000
 7.1467475E+001, 4.9842149E+004, 4.9842142E+004, 4.9842147E+004, 5.5022782E+001, 5.4724165E+001, 5.4113240E+001, 1.5928994E+000, 1.5943501E+000, 1.5973264E+000
 7.2020874E+001, 4.9842088E+004, 4.9842081E+004, 4.9842086E+004, 5.5022593E+001, 5.4656280E+001, 5.4069560E+001, 1.5928996E+000, 1.5946797E+000, 1.5975390E+000
 7.2653329E+001, 4.9842030E+004, 4.9842022E+004, 4.9842028E+004, 5.5021563E+001, 5.4570018E+001, 5.4030430E+001, 1.5929040E+000, 1.5950988E+000, 1.5977294E+000
 7.3206728E+001, 4.9841973E+004, 4.9841964E+004, 4.9841971E+004, 5.5020299E+001, 5.4504405E+001, 5.4007776E+001, 1.5929096E+000, 1.5954176E+000, 1.5978395E+000
 7.3839183E+001, 4.9841917E+004, 4.9841909E+004, 4.9841915E+004, 5.5018712E+001, 5.4464354E+001, 5.3998532E+001, 1.5929167E+000, 1.5956121E+000, 1.5978840E+000
